,id,low,middle,high
0,000001,1.0436009152744161,3.6503863124289957,9.9660142974335
1,000002,1.102033772380121,4.085411012679353,9.463662811392124
2,000004,1.4332763828944204,4.859331772717603,11.546315101029231
3,000005,1.1013310433662444,3.904842342342342,10.820179144836912
4,000006,1.2613522455778083,4.3296725279561485,11.855276343903034
5,000007,1.4640463266697068,5.010840108401087,11.997568019455848
6,000008,1.1722621521022518,4.255944012247324,10.959466707531986
7,000009,1.369113430654206,4.76839458100106,12.271594897477478
8,000010,1.398124299561548,5.117324185248716,12.41100877253007
9,000011,1.1904761904761934,5.110132158590309,11.891891891891877
10,000012,1.517101878896196,4.5407436427096,11.727395731953392
11,000014,1.1332175402698053,4.869421010243561,12.608334103298533
12,000016,1.3333333333333344,4.07766990291262,9.819208348620108
13,000017,1.4084507042253551,4.755205771437935,13.116485501260993
14,000019,1.2515723270440313,4.5422101383487705,11.808391095550139
15,000020,1.2269938650306762,4.610492845786964,11.77162460181327
16,000021,1.081919128430758,4.24601518026565,10.537409096511768
17,000023,1.1688773298656272,4.415129263629615,11.217673093169587
18,000025,1.2064343163538855,4.908616187989563,13.543145761725764
19,000026,1.2349390355673382,4.103922567498724,10.40328175761247
20,000027,0.9900990099009961,3.009641509101391,7.709824333116452
21,000028,1.2298204395315673,4.29019463422363,10.032786885245901
22,000029,1.4045446664136008,4.7489208633093565,12.624810892586996
23,000030,1.387733086762208,4.558151345860837,11.13992342499131
24,000031,1.3228070175438493,5.114638447971782,11.891402133401868
25,000032,1.315789473684219,4.39492604160528,9.828903414399807
26,000034,1.3630856840642296,5.161290322580637,13.338996448619536
27,000035,1.4632147838214695,4.915044396234989,10.715830070706481
28,000036,1.1921539379474921,4.310791162807189,10.98188537671137
29,000037,1.1100769316685684,4.584349283754949,12.302223619337552
30,000038,1.1463940315004133,5.027091074840349,12.726998491704387
31,000039,1.131873331305542,4.33713938363103,9.484302862419206
32,000040,1.0229132997557555,3.8557862546273918,10.425086047707206
33,000042,1.1611030478955018,4.123711340206179,9.9669603524229
34,000045,1.3542808651177773,4.597129375898165,11.339275103980988
35,000046,1.0961581320395681,4.284292821606251,11.717389440681908
36,000048,1.251518113688208,4.4776185933724975,10.536434108527134
37,000049,1.2859364045292365,4.764242951033559,11.898556149732606
38,000050,1.412645553777661,4.976501305483016,12.185648452929565
39,000055,1.1969401388051313,4.16840640222687,11.55753468329958
40,000056,1.4456912467040817,4.8968845985081115,13.435369231282614
41,000058,1.4154945726953045,4.841874483292691,12.072106824925816
42,000059,1.2653963575113132,4.53808950758392,10.441249999999997
43,000060,1.2839915093499454,4.704787723930117,11.269672945176662
44,000061,0.9860380492821181,3.919930716844471,9.450361193626795
45,000062,1.156069364161842,4.246284501061575,10.87088167376579
46,000063,1.1076094232818618,4.115463334880811,9.202944948929812
47,000065,1.0927025474047196,4.404959953350373,11.607380168534235
48,000066,1.4158138167611467,4.405723735277242,11.241019296630999
49,000068,1.3777904436211708,4.735921725066921,11.542366263178439
50,000069,1.1865524060645993,4.461942257217837,9.709480122324155
51,000070,1.4293145086382997,4.474683379845452,11.074249605055293
52,000078,1.0760753099648017,3.6617886178861805,11.009851306268414
53,000088,1.1867167366173323,3.42564476693746,9.143855724870686
54,000089,0.9104704097116919,3.092783505154634,7.929271825728446
55,000090,1.269583649061011,4.306051876223308,10.820109007661724
56,000096,1.0702230722380652,3.944945907681643,8.647609681005736
57,000099,1.0925351914763461,3.6946568477519213,9.897518477841441
58,000100,1.3118775000286482,3.878593944025225,9.523300757313896
59,000150,1.2326443552892346,4.883186821889607,13.153658536585375
60,000151,1.1353711790393082,4.115226337448557,11.099476439790562
61,000153,1.28878418374431,3.8424615384615413,10.022652693976926
62,000155,1.4334191330370385,4.963418173811214,12.09174738473461
63,000156,1.0133786147988075,3.4995986698773014,9.759019741320632
64,000157,1.0071942446043078,4.293893129770986,9.738309528468012
65,000158,1.3325504324200603,4.450413072751754,11.606571544147396
66,000159,1.454326502525104,4.803803186773285,12.651650191757147
67,000166,0.7900799123752362,2.506912442396323,6.025609217238849
68,000301,1.0274449707439535,3.6699313295057983,9.449635730123545
69,000333,0.9935897435897508,3.777923784494082,7.069745298738393
70,000338,1.3256484149855725,4.27995971802619,9.676331759946057
71,000400,1.2464046021093076,4.367088607594922,10.747663551401873
72,000401,1.2554403818254398,4.701561065197421,11.222643477563137
73,000402,0.9828009828009764,3.5846724351050794,8.708552022229082
74,000403,1.0197825409935881,4.173202565296409,9.551803363967402
75,000404,1.3280216387851775,4.372345182204333,10.383213096818107
76,000407,1.2837002226069798,4.378231441446373,10.05016376122558
77,000408,1.2010443864229787,4.5977011494252915,10.932400932400924
78,000409,1.4749348015068187,5.070629242340855,12.599154299473112
79,000410,1.4148274665741472,4.710809978441643,10.977541261501363
80,000411,1.413881748071972,4.632352941176476,12.062256809338534
81,000413,1.3140694874441017,4.5058637017438885,11.22007722007723
82,000415,1.126881788984612,4.573173391494005,10.625966594494276
83,000416,1.2905558306518363,4.871383123769127,11.900650502661142
84,000417,1.0000000000000009,3.3807829181494573,8.607219827586203
85,000419,1.2083531588686147,4.087591240875916,10.134273676497532
86,000420,1.4354066985646052,4.063860667634256,9.842221135029359
87,000421,1.1086488150200062,3.6911532762988184,8.391157229866913
88,000422,1.2121212121212042,4.0238450074515715,9.682299546142204
89,000423,1.2583745478703738,3.8019047619047726,7.82504251416023
90,000425,1.0524470685917178,4.326069282782417,10.704560913978836
91,000426,1.2652898067954643,4.761904761904759,11.092649363035626
92,000428,1.253132832080196,4.125177809388337,10.306242638398116
93,000429,0.8458239738615388,2.740167912328447,6.360942249240115
94,000430,1.1551817869148877,3.741379310344825,9.10224703222161
95,000488,1.265822784810122,3.750000000000013,8.281832362852626
96,000498,1.2317187610113924,4.248546757717704,10.868317903342762
97,000501,1.2415752610017192,4.112637362637368,9.59467812219921
98,000502,1.266047055709483,4.650645393607004,11.258973490081585
99,000503,1.5839832449158309,5.471634632592433,12.318561544531928
100,000504,1.485185185185179,5.652191707935992,13.489078719723173
101,000505,1.39889730762257,5.274872988992373,11.775735294117654
102,000506,1.2349715347000603,4.4473351856529355,12.332025117739407
103,000507,1.3396940390086414,4.299775449101795,11.239704882005134
104,000509,1.6742412402713074,5.2365401588702545,11.784495862185459
105,000510,1.3057733428367873,4.748330914368646,11.220865082922458
106,000513,1.1890130898733908,4.236416521233272,9.62030252652752
107,000514,1.0666666666666678,4.306220095693795,11.786372007366493
108,000516,1.3452413170951787,4.341570222083195,10.511278195488712
109,000517,0.8982796883039261,3.893660235021036,11.505664407094445
110,000518,0.9978815954680452,3.6779767121572453,9.648121912930288
111,000519,1.2009485870359797,4.567223852664705,11.141112182577954
112,000520,1.2502361137345988,4.071677451468392,10.134794040315514
113,000521,1.153198653198652,3.8569128021515415,9.14125293352302
114,000523,1.4116336436699335,4.564637444884955,11.639852684628803
115,000524,1.3827416913241435,4.2862356621480675,10.038277511961736
116,000525,1.1270248241376366,4.1767142914374995,10.161013780013704
117,000526,1.46315527842917,5.140397882683251,12.317575016646114
118,000528,1.1670236979515312,4.153646993327576,10.032721053022978
119,000529,1.1929653367634323,3.559718969555031,8.745511447866924
120,000530,1.3083494831034923,4.16965352449224,9.868522182049707
121,000531,1.026586276198675,4.040848108062977,9.630367901551088
122,000532,1.458378970427153,5.099715099715091,11.928540726413065
123,000533,1.2487531172069781,4.118925417302442,10.389467750087476
124,000534,1.3283863368669007,4.604678792679136,11.509227871939732
125,000536,1.2302648171500647,4.477611940298518,10.730097208764413
126,000537,1.4020334632379046,5.002162725210308,12.62400539887451
127,000538,0.9501562351074633,3.3819421461151755,7.65888213507702
128,000539,0.7861664350779654,2.783863225736858,7.7839944328462085
129,000540,1.1932658284642097,4.840890155842063,11.426132178984226
130,000541,0.9225106182161347,3.1923505976095647,7.943785562487147
131,000543,1.0400108609220076,3.7252874423025246,9.76300697851172
132,000544,1.2237762237762289,3.966005665722379,8.697262308580253
133,000545,1.3625834961866836,4.574409067670313,11.837662337662332
134,000546,1.3097780366271934,5.320019738178865,12.35083744806175
135,000547,1.4675220818577004,4.6774695313919326,10.54505488777003
136,000548,1.1553403224948076,4.037566678016119,11.195974052002338
137,000550,1.3852614187863561,4.665622335779391,10.558155214006561
138,000551,1.1764705882352913,4.138842137647723,10.12872200263505
139,000552,1.5265420065559197,4.446201141853323,10.57426620641217
140,000553,1.437371663244359,4.159132007233265,10.337078651685392
141,000554,1.1446908001066978,3.8319814495682722,10.647447790304929
142,000555,1.4625204582651419,5.138461538461536,11.89648809264346
143,000557,1.2123026266556896,4.683973693319494,12.078286167680508
144,000558,1.3014139907090287,5.163711340206183,12.721072374806527
145,000559,1.2411347517730547,4.060913705583748,11.567874268785616
146,000560,1.2755102040816395,4.335260115606934,11.362206507788702
147,000561,1.223341109275514,4.936692168654159,11.243740515933235
148,000563,1.253132832080196,4.186489058039957,11.984282907662088
149,000564,1.1420454545454615,4.289803702176146,10.029920953017143
150,000565,1.5857841840146591,4.88410011598393,11.72621065858232
151,000566,1.1869392010127007,4.595334738002429,11.035405542058726
152,000567,1.2945560022010962,5.078354978354973,12.336468129571573
153,000568,1.1153649503049052,4.255500264882073,9.359103475513432
154,000570,1.2718600953895083,4.545454545454552,11.458185683912127
155,000571,1.269841269841271,4.26270456503014,11.170483460559794
156,000572,1.20528050436353,4.373252394532178,10.69319734693197
157,000573,1.2475062344139636,3.726803726803736,9.900349076588013
158,000576,1.1666666666666714,4.716981132075468,11.576665352778866
159,000581,1.2112611995579345,4.177686644929241,9.756523649947823
160,000582,1.1758690047519864,4.101467160290682,10.052808348455882
161,000584,1.0724298585883487,4.355803749501386,11.503348852405452
162,000585,1.2594471750964642,4.542024013722138,10.293704292527822
163,000586,1.341156747694888,4.708520179372196,11.192623807202054
164,000587,1.450530857532347,5.289463013381219,12.330015797788315
165,000589,1.1569983042319587,4.047811837285517,9.230062630480175
166,000590,1.3782542113323102,5.177111716621252,11.240875912408766
167,000591,1.2873031770296106,4.299765807962528,11.05566318317008
168,000592,1.7320820065918154,4.863782215046303,11.72375604011689
169,000593,1.3879681903721253,4.443822151102977,9.689670138888888
170,000595,1.356238975381559,5.1470570088845,12.12930872986136
171,000596,1.4155262455685516,4.729385191559701,11.431971575223853
172,000597,1.1730205278592298,4.174757281553395,10.07905384375973
173,000598,1.1574136308643583,3.6316726397264776,9.663296177055866
174,000599,1.1718749999999982,3.8155802861685246,9.156976744186045
175,000600,1.1804634860507908,3.53079805324391,9.423033375074043
176,000601,1.058459787066146,3.822444392776877,8.511997533697569
177,000603,1.3271400132713953,4.689655172413791,11.317931117893263
178,000605,1.1514650934119903,4.3563847248057765,12.14457402929882
179,000606,1.283516483516487,4.921637791592771,11.559967669063854
180,000607,1.2002402402402341,3.9368851992949327,9.902555509007128
181,000608,1.2291304676286168,4.289217298170775,11.599794568915721
182,000609,1.3333333333333286,4.819277108433729,12.304728317659354
183,000610,1.4208910341786585,4.3417655812022025,10.594215773368873
184,000611,1.480637813211854,5.042016806722689,10.31746031746031
185,000612,1.429411561213542,5.010752688172052,12.299547528152463
186,000613,1.4609739148121164,5.266081871345033,11.279503105590067
187,000615,1.3647886654305197,4.624076897919405,11.496297629020752
188,000616,1.1687584054943343,4.497139312056258,11.78124567735121
189,000617,1.3727122621358636,4.321355894405266,12.212456262451603
190,000619,0.8939974457215872,3.3755274261603407,7.882751937984495
191,000620,1.0121457489878507,3.9408866995073932,10.60562241252805
192,000622,1.2964621585311256,4.439383832110349,12.686485104206612
193,000623,0.9520501326073209,3.4342769365810826,9.718223966599684
194,000625,1.2431033696593843,4.647238791055712,11.316166091834107
195,000626,1.2548262548262623,4.499274310595073,11.3357843137255
196,000627,1.190730837789668,4.014814814814811,10.324664846077448
197,000628,1.5304106255484824,4.81011423115256,11.727840199750311
198,000629,0.8723469076876266,3.5602396812361237,9.017307692307703
199,000630,1.3101143169679401,4.22327297889517,9.794024865466692
200,000631,1.0332975295381335,3.8892599306681928,9.919967987194875
201,000632,1.2765957446808427,4.295302013422811,10.045354085432391
202,000633,0.5316654448655751,3.9858005911916474,10.13758602844515
203,000635,1.33511348464619,4.62962962962963,10.575424362122344
204,000636,1.4469175934157583,5.022304091052607,11.510465116279072
205,000637,0.8417514374170728,3.6329082270567574,9.151115618661262
206,000638,1.554261057173682,5.114776682134583,11.811767692548035
207,000639,0.8758010375343368,4.4350062810312885,10.753491332509645
208,000650,1.2327703474228693,4.262663759393074,9.999999999999998
209,000651,1.0107015457788238,3.824626865671643,8.785936378856722
210,000652,1.358089391330391,3.9366700715015392,10.801541090930149
211,000655,1.2240150093808566,4.497820665221554,12.484492945604396
212,000656,1.4823174907546897,5.039697424356092,12.25860155382908
213,000657,1.2851669755825985,4.859993442315797,12.038153746665602
214,000659,1.1433691635987855,4.4545009784735745,9.892202659001082
215,000661,1.395604395604391,5.081255974704019,10.894510154288302
216,000663,1.341271989174558,4.522585451682612,11.808291309487776
217,000665,1.1097283335280221,4.181952364978198,10.685353360776809
218,000666,1.2861018993065971,4.107524226899578,9.170439608587705
219,000667,1.111111111111112,3.8372408537465392,10.326440879382057
220,000668,1.2186887567727709,4.164960182025025,9.80591231048411
221,000669,1.1200000000000045,4.4905008635578545,11.433086392451713
222,000670,1.5710919088766637,5.394990366088619,13.793297806927653
223,000671,1.1840326795422482,4.565340909090905,10.71818504076568
224,000672,1.239528504707548,4.479706275820208,11.33848390319178
225,000673,1.5037593984962352,5.71428571428572,13.261622338466065
226,000676,0.7462686567164187,4.105044057448141,11.385293528351033
227,000677,1.4075783997624656,4.703915766821651,11.088825214899721
228,000678,1.2200320567472736,4.608294930875577,11.485050491716725
229,000679,1.2889923511805845,3.824493731918995,10.291301601595974
230,000680,1.2066182405165415,4.162145871006624,10.994365672176738
231,000681,1.2087912087912223,5.486610058785095,12.491085437170167
232,000682,1.341896024464831,3.8461538461538467,10.662124248497001
233,000683,1.5174647235715952,4.109514351365024,10.894790353992441
234,000685,1.0986330742428243,3.6035120758581987,9.855496032545215
235,000686,1.0720337710352204,4.107821300943387,10.23740573152337
236,000687,1.3042606079106953,4.834536220261964,13.263923611671167
237,000688,1.222258031437239,4.607684065513534,11.648330553300106
238,000690,1.2072033769625556,3.898582581672108,9.27327408425808
239,000691,1.5290663534938358,4.719232373800575,11.662500000000012
240,000692,1.1673056176311958,3.8557862546273918,8.485583740349771
241,000695,1.3823552146374496,4.670256499334145,11.41632210144248
242,000697,1.4071825437713519,4.806826687958482,12.520991648321244
243,000698,1.219713261648739,4.202242787152966,9.944057005889311
244,000700,1.2987012987012903,4.065040650406502,9.595959595959595
245,000701,1.1856517077205126,4.2333779216884615,10.038674033149183
246,000702,1.1966021399983697,3.907382651428146,10.408549783549784
247,000703,1.3020081459069208,4.74929044465468,10.974352422626085
248,000705,1.1718749999999925,3.9195979899497546,8.955223880597012
249,000707,1.3803382890500464,4.426064283793411,10.086211600371032
250,000708,1.0878149487299442,4.171779141104294,9.514140681653375
251,000709,1.058762438072784,3.366063553042203,8.879128959719532
252,000710,1.567567567567563,5.645161290322581,12.983931024728708
253,000711,1.5371120107962246,4.957459051768415,10.59198704537182
254,000712,1.1469272041423533,4.292848710186755,10.425600985304063
255,000713,1.2202596846199991,4.327646789224428,10.793196165536584
256,000715,1.1732527666197377,3.9187761636119243,9.696325648414986
257,000716,1.3850574712643646,4.419958988380042,10.545157643512127
258,000717,1.1854411749932214,4.245368239845913,10.29708093629196
259,000718,1.3467419288554685,4.624876408938109,12.079893681353466
260,000719,0.9213625728675148,3.717295487594547,9.9283371337631
261,000720,1.427052023121387,4.479129228065968,10.24319934857582
262,000721,1.1382113821138113,4.1666666666666705,10.148358585858578
263,000722,0.931712631156475,3.975534257991546,11.124756998444802
264,000723,1.5476190476190357,4.817518248175183,12.307692307692307
265,000725,1.5090566181031113,4.228277114805354,10.421758050478687
266,000726,0.9281041539106047,3.103522765038216,7.153011672280132
267,000727,1.2788006635672842,4.818035426731082,11.83530782676248
268,000728,0.9784735812133037,4.4238683127571985,10.627719080174026
269,000729,0.8844915586965021,3.1913287053951946,7.716877293110477
270,000731,1.272984441301271,3.567787971457692,9.011352174939368
271,000732,1.216875905752855,4.070733863837306,10.739126453621461
272,000733,1.3895550527903457,4.834626639923715,11.210054477177767
273,000735,1.3167806521954615,4.274059492563431,10.126597051597056
274,000736,1.4566894384719908,4.788898788898793,11.451007053624553
275,000737,1.4135471395213102,4.570663919183788,10.48491795986107
276,000738,1.3593739350762324,4.291287284756846,11.48654617409586
277,000739,1.3500976212208329,4.315236014734849,10.444923504867873
278,000750,1.1473962930273678,3.9957939011566856,10.48951048951049
279,000751,1.2626282793595018,4.341275689838694,10.705171777592211
280,000752,1.2820058381984911,4.854237664839231,12.012279215060728
281,000753,1.0989010989010917,3.869499241274657,9.295971533867077
282,000755,1.4979287804507293,4.5785028705694595,11.491640543364682
283,000756,1.0731768545249318,3.7210342930496987,8.516206946524315
284,000757,1.221958550862206,4.026819923371647,10.810911186527493
285,000758,1.5649746860866969,5.169492473840311,11.988789982843645
286,000759,1.087632699979726,3.7917960451054116,8.263594140764566
287,000761,1.1641821316296532,3.50199823884034,9.284640989063245
288,000762,1.3683792181516021,5.216212458286987,13.348651348651346
289,000766,1.1064239232268955,4.1125136356552865,11.286006360745128
290,000767,0.9285714285714342,3.529411764705877,9.512195121951233
291,000768,1.137358386893873,3.728964877101743,10.541576720490454
292,000776,1.0486215538847077,3.7936325278097405,10.003228376168726
293,000777,1.1399738997389939,4.193169092945135,10.778445260079142
294,000778,0.9623620490858151,3.4208995159253766,8.05751271824023
295,000779,1.2117756323030715,4.445722416553044,10.395376186265299
296,000780,1.1312563840653678,3.9890353739720754,10.583970143948822
297,000782,1.3513513513513487,4.345813447925771,9.499527678065364
298,000783,0.982387647226546,4.06606747917745,10.072041166380787
299,000785,1.3285028994625914,4.248389280252698,10.37844144100502
300,000786,1.268760475527041,4.4839463161645305,10.324398000908673
301,000788,1.2093091794652038,4.460317460317459,10.249002931142176
